SIMFIT RESULTS
==============

Dataset : F:/NMR/Max/20230706_100mM_HN-P-OH_10mM_AUPOL_1p3mm_18kHz_DNP_100K/1/pdata/1/ct1t2.txt

INTENSITY fit : Saturation-Recovery(T1) : I[t]=I[0](1-exp(-t/T1))

15 points for Peak 1,  Peak Point = 173.137 ppm

Converged after 58 iterations!

Results     Comp. 1    

I[0]  =    2.073e-01  
T1    =       2.882s  

RSS   =    2.395e-05
SD    =    1.264e-03

Point       Tau          Expt          Calc       Difference

    1      10.000m     3.778e-04     7.180e-04    3.402e-04
    2      24.000m     6.781e-04     1.719e-03    1.041e-03
    3      38.000m     1.235e-03     2.715e-03    1.480e-03
    4      60.000m     2.352e-03     4.271e-03    1.919e-03
    5      94.000m     4.684e-03     6.652e-03    1.968e-03
    6     146.000m     8.343e-03     1.024e-02    1.896e-03
    7     229.000m     1.390e-02     1.583e-02    1.930e-03
    8     358.000m     2.271e-02     2.421e-02    1.498e-03
    9     560.000m     3.577e-02     3.660e-02    8.335e-04
   10     876.000m     5.400e-02     5.433e-02    3.287e-04
   11       1.369s     7.872e-02     7.838e-02   -3.392e-04
   12       2.141s     1.096e-01     1.087e-01   -9.066e-04
   13       3.349s     1.434e-01     1.424e-01   -9.327e-04
   14       5.238s     1.740e-01     1.736e-01   -3.789e-04
   15       8.192s     1.944e-01     1.952e-01    8.294e-04

============================================================


16 points for Peak 2,  Peak Point = 58.891 ppm

Converged after 45 iterations!

Results     Comp. 1    

I[0]  =    8.428e-01  
T1    =       2.942s  

RSS   =    4.557e-04
SD    =    5.337e-03

Point       Tau          Expt          Calc       Difference

    1      10.000m     7.699e-04     2.860e-03    2.090e-03
    2      16.000m     1.257e-03     4.572e-03    3.314e-03
    3      24.000m     1.878e-03     6.848e-03    4.970e-03
    4      38.000m     4.790e-03     1.082e-02    6.027e-03
    5      60.000m     9.514e-03     1.702e-02    7.502e-03
    6      94.000m     1.795e-02     2.651e-02    8.559e-03
    7     146.000m     3.206e-02     4.081e-02    8.754e-03
    8     229.000m     5.495e-02     6.312e-02    8.172e-03
    9     358.000m     9.007e-02     9.657e-02    6.500e-03
   10     560.000m     1.420e-01     1.461e-01    4.060e-03
   11     876.000m     2.158e-01     2.171e-01    1.259e-03
   12       1.369s     3.156e-01     3.136e-01   -1.940e-03
   13       2.141s     4.400e-01     4.358e-01   -4.258e-03
   14       3.349s     5.767e-01     5.729e-01   -3.893e-03
   15       5.238s     7.014e-01     7.008e-01   -6.686e-04
   16       8.192s     7.879e-01     7.908e-01    2.920e-03

============================================================


15 points for Peak 3,  Peak Point = 44.244 ppm

Converged after 42 iterations!

Results     Comp. 1    

I[0]  =    1.070e+00  
T1    =       2.948s  

RSS   =    7.762e-04
SD    =    7.193e-03

Point       Tau          Expt          Calc       Difference

    1      16.000m     1.378e-03     5.795e-03    4.417e-03
    2      24.000m     2.352e-03     8.680e-03    6.328e-03
    3      38.000m     5.877e-03     1.371e-02    7.834e-03
    4      60.000m     1.156e-02     2.157e-02    1.001e-02
    5      94.000m     2.242e-02     3.360e-02    1.118e-02
    6     146.000m     4.039e-02     5.173e-02    1.134e-02
    7     229.000m     6.964e-02     8.001e-02    1.038e-02
    8     358.000m     1.136e-01     1.224e-01    8.780e-03
    9     560.000m     1.795e-01     1.852e-01    5.698e-03
   10     876.000m     2.735e-01     2.752e-01    1.748e-03
   11       1.369s     4.004e-01     3.977e-01   -2.673e-03
   12       2.141s     5.581e-01     5.527e-01   -5.407e-03
   13       3.349s     7.320e-01     7.268e-01   -5.257e-03
   14       5.238s     8.905e-01     8.894e-01   -1.080e-03
   15       8.192s     1.000e+00     1.004e+00    3.996e-03

============================================================


16 points for Peak 4,  Peak Point = 27.779 ppm

Converged after 41 iterations!

Results     Comp. 1    

I[0]  =    1.061e+00  
T1    =       2.944s  

RSS   =    7.820e-04
SD    =    6.991e-03

Point       Tau          Expt          Calc       Difference

    1      10.000m     9.841e-04     3.596e-03    2.612e-03
    2      16.000m     1.367e-03     5.748e-03    4.382e-03
    3      24.000m     2.634e-03     8.611e-03    5.977e-03
    4      38.000m     5.581e-03     1.360e-02    8.020e-03
    5      60.000m     1.137e-02     2.140e-02    1.003e-02
    6      94.000m     2.228e-02     3.333e-02    1.105e-02
    7     146.000m     3.989e-02     5.131e-02    1.142e-02
    8     229.000m     6.897e-02     7.937e-02    1.040e-02
    9     358.000m     1.127e-01     1.214e-01    8.705e-03
   10     560.000m     1.779e-01     1.837e-01    5.832e-03
   11     876.000m     2.713e-01     2.730e-01    1.678e-03
   12       1.369s     3.970e-01     3.944e-01   -2.581e-03
   13       2.141s     5.536e-01     5.481e-01   -5.554e-03
   14       3.349s     7.259e-01     7.206e-01   -5.375e-03
   15       5.238s     8.824e-01     8.816e-01   -8.133e-04
   16       8.192s     9.910e-01     9.949e-01    3.894e-03

============================================================


14 points for Peak 5,  Peak Point = 22.728 ppm

Converged after 46 iterations!

Results     Comp. 1    

I[0]  =    9.542e-01  
T1    =       2.937s  

RSS   =    4.237e-04
SD    =    5.501e-03

Point       Tau          Expt          Calc       Difference

    1      10.000m     6.762e-04     3.244e-03    2.567e-03
    2      16.000m     1.257e-03     5.184e-03    3.927e-03
    3      24.000m     2.625e-03     7.766e-03    5.141e-03
    4      38.000m     5.169e-03     1.227e-02    7.098e-03
    5      94.000m     2.018e-02     3.006e-02    9.882e-03
    6     229.000m     6.231e-02     7.158e-02    9.267e-03
    7     358.000m     1.017e-01     1.095e-01    7.784e-03
    8     560.000m     1.604e-01     1.657e-01    5.232e-03
    9     876.000m     2.440e-01     2.461e-01    2.054e-03
   10       1.369s     3.572e-01     3.555e-01   -1.698e-03
   11       2.141s     4.984e-01     4.939e-01   -4.530e-03
   12       3.349s     6.532e-01     6.491e-01   -4.052e-03
   13       5.238s     7.945e-01     7.938e-01   -6.817e-04
   14       8.192s     8.926e-01     8.955e-01    2.973e-03

============================================================

